# r [au]                 Sigma [g cm-2]           T_mid [K]                alpha                    a_max [cm]               tau_mid (Planck)         tau_mid (Rosseland)
1.052387583442992325e+00 4.273497077640260977e+04 1.185853062198386624e+03 2.335818547227999815e-03 3.491234028177486182e-01 2.802500139218233926e+03 2.975117901454535513e+03
1.246485250245153997e+00 3.119810536314568162e+04 1.012255406257814798e+03 2.841634973646564415e-03 2.352482127759411568e-01 2.471974226506283230e+03 2.729275433937483740e+03
1.476381424033486045e+00 2.286254672176970780e+04 8.704289118466716673e+02 3.425851337574707493e-03 1.585162185279349323e-01 2.245716843713462822e+03 2.560810040627342460e+03
1.748678621590138871e+00 1.689181386247213959e+04 7.614998797159208834e+02 4.050333586532622529e-03 1.068122526411220130e-01 2.185768613884459228e+03 2.528100071602851131e+03
2.071197098411232673e+00 1.250501538547647215e+04 6.701490853410822410e+02 4.767546520551817907e-03 7.197280770522684890e-02 2.178603893467147827e+03 2.531548308975423424e+03
2.453199442997812341e+00 9.265461145561868761e+03 5.913091282139481564e+02 5.602123806556474905e-03 4.849710516243954661e-02 2.194055220893931619e+03 2.535528735855801187e+03
2.905656594315040309e+00 6.881984533094545441e+03 5.217586960310541144e+02 6.546881152005121218e-03 3.267858076024336700e-02 2.210227440568447491e+03 2.539367655928404020e+03
3.441562922323707863e+00 5.158739571604035518e+03 4.731400506928434311e+02 7.489596596040495012e-03 2.201965739866112298e-02 2.483560800925295553e+03 2.794998938068553798e+03
4.076309420558163588e+00 3.879142207400132520e+03 4.383226881283429179e+02 8.510015229408441143e-03 1.483740421628995491e-02 3.039961412798611491e+03 3.313875685271511429e+03
4.828125728676806894e+00 2.887867326544042044e+03 4.019392636280167608e+02 9.905588756680664200e-03 9.997819670480646501e-03 3.571908546849862887e+03 3.766596460673551064e+03
5.718603679678229135e+00 2.103329930469025840e+03 3.570333324607751138e+02 1.214069632389392153e-02 6.736784730425276688e-03 3.695093757620427368e+03 3.777061776003396517e+03
6.773317407828080228e+00 1.485581474286876528e+03 3.008474908140645994e+02 1.598986725383724772e-02 4.539416592808954813e-03 3.094800755437824591e+03 3.090264807319018473e+03
8.022557826523225799e+00 1.043972791953905244e+03 2.513923967034206157e+02 2.131096124487931107e-02 3.058774152305179968e-03 2.506884283036425586e+03 2.469633055358304773e+03
9.502202569973327684e+00 7.996591345357741147e+02 2.203421357908906657e+02 2.745143367733059864e-02 2.061079683594492593e-03 2.019148358374081454e+03 2.038312026422803683e+03
1.125474638304197228e+01 6.355322008323693126e+02 1.975329103488412272e+02 3.448042358860235745e-02 1.388807819931577861e-03 1.666094909217336181e+03 1.751346803253508597e+03
1.333052155158932095e+01 4.911870036656193861e+02 1.724480906685022035e+02 4.506260984135020131e-02 9.358139697633167074e-04 1.281983745794808556e+03 1.420112445386620720e+03
1.578914342353729872e+01 3.622076985138511418e+02 1.381609312989884870e+02 6.447363302510314420e-02 6.305752123769889058e-04 7.197655548470802387e+02 8.670910552934723228e+02
1.870122253538601242e+01 2.594535982854731060e+02 1.037270893808692023e+02 9.700679603853430699e-02 4.248975878879548778e-04 3.183661529201939402e+02 4.324465370677048099e+02
2.215039251569969281e+01 1.803844822091396338e+02 7.370293745084703119e+01 1.544574953566437980e-01 2.863067825207627664e-04 1.146803660010150594e+02 1.754103776939665522e+02
2.623571200605660181e+01 1.239114207317476541e+02 5.169534160093870412e+01 2.496364284863709926e-01 1.929207791572775592e-04 3.994830468389141487e+01 6.788221456876789262e+01
3.107450958157445342e+01 8.421691259779233008e+01 3.590469116621214596e+01 4.093742765406488404e-01 1.299949190967967193e-04 1.341058450155650483e+01 2.487420536929006687e+01
3.680575337587349338e+01 6.155876356181558862e+01 2.870832614151120765e+01 5.488390205025602819e-01 8.759387695198025763e-05 6.571257639926566974e+00 1.177271864771021903e+01
4.359404218462265845e+01 4.507384917334034213e+01 2.312051450223481552e+01 7.283622059386165581e-01 5.902297822706052433e-05 3.276639115119538648e+00 5.695263960843332640e+00
5.163433267040320374e+01 3.305044759466948534e+01 1.874384260766811394e+01 9.582809001996320797e-01 3.977118127448370759e-05 1.663558664708069568e+00 2.806795584664500076e+00
