# r [au]                 Sigma [g cm-2]           T_mid [K]                alpha                    a_max [cm]               tau_mid (Planck)         tau_mid (Rosseland)
1.052387583442992325e+00 2.684838724521021868e+04 3.778861146003808358e+02 1.570679237986031174e-04 7.482019425467362872e+00 1.480356466540051997e+03 1.518791428133559975e+03
1.246485250245153997e+00 2.016985281513753944e+04 3.362242973791757095e+02 1.916621561202124565e-04 5.142867668881481613e+00 1.433774680371518571e+03 1.437752113786869131e+03
1.476381424033486045e+00 1.506293803488098456e+04 2.942717411658329070e+02 2.372337751241117298e-04 3.535019939883986329e+00 1.302197032291713640e+03 1.277907998898573169e+03
1.748678621590138871e+00 1.123756490140824280e+04 2.570852874954038043e+02 2.938955956111505329e-04 2.429843966429592772e+00 1.176186954967541624e+03 1.129913220267443421e+03
2.071197098411232673e+00 8.388476874298688927e+03 2.241966779924071034e+02 3.628836313392431881e-04 1.670186251166665858e+00 1.056433867204369108e+03 9.963019756876240081e+02
2.453199442997812341e+00 6.299848774047776715e+03 1.962695402420626465e+02 4.401170961339304208e-04 1.148025203315863552e+00 9.643632870532526340e+02 9.012444238560851772e+02
2.905656594315040309e+00 4.739717591685291154e+03 1.720973058006837562e+02 5.306659402457566217e-04 7.891107153635124050e-01 8.868610664259138048e+02 8.241963619662680003e+02
3.441562922323707863e+00 3.562464434117328892e+03 1.500394080798400580e+02 6.409688565284000789e-04 5.424059674848391577e-01 7.976896596174894967e+02 7.397138196565279031e+02
4.076309420558163588e+00 2.673255686904717550e+03 1.301756372172823717e+02 7.769219738822240751e-04 3.728301084184786340e-01 7.042955419714448908e+02 6.524824064907822958e+02
4.828125728676806894e+00 2.002436541973949488e+03 1.126024882450878692e+02 9.453528674443041017e-04 2.562698386005861639e-01 6.149148677232271893e+02 5.707646249218282719e+02
5.718603679678229135e+00 1.494037851434515687e+03 9.652262896206559617e+01 1.161478225042236008e-03 1.761505540820090254e-01 5.182539286497933517e+02 4.828679136736361670e+02
6.773317407828080228e+00 1.109890915775848271e+03 8.183591924864906275e+01 1.442144308132816376e-03 1.210794757308911590e-01 4.184989211790957029e+02 3.921589752031266016e+02
8.022557826523225799e+00 8.171163641953874048e+02 6.829068546983353372e+01 1.832368345454515705e-03 8.322562208031472619e-02 3.165837533953917386e+02 3.006290757037609183e+02
9.502202569973327684e+00 5.950278881460684488e+02 5.621231449845392802e+01 2.394021670845387136e-03 5.720626166279478564e-02 2.263827307736464149e+02 2.202194066578927618e+02
1.125474638304197228e+01 4.263167902357372441e+02 4.540490027396247541e+01 3.262050197612632700e-03 3.932150089877465421e-02 1.498635856335630194e+02 1.517538939473912478e+02
1.333052155158932095e+01 2.980008601347347508e+02 3.522333295435583267e+01 4.741744754992505140e-03 2.702816768636902983e-02 8.309500914541327177e+01 9.314008821807854588e+01
1.578914342353729872e+01 2.012392359522726224e+02 2.559347368484030838e+01 7.553855522548505279e-03 1.857817814134474221e-02 3.355380649390862402e+01 4.679648045096950426e+01
1.870122253538601242e+01 1.345083752486422100e+02 1.808853347635556119e+01 1.233019723477610588e-02 1.276996306433331174e-02 1.121480513783572874e+01 2.069965208657477262e+01
2.215039251569969281e+01 9.089991167949250439e+01 1.287959573918640466e+01 1.944024984181093318e-02 8.777607547078535022e-03 3.433582429707272343e+00 7.967437998209887517e+00
2.623571200605660181e+01 6.430326396235790298e+01 9.977078674719274787e+00 2.686874183867654642e-02 6.033407760255968602e-03 1.265027950838523818e+00 2.845284997543134242e+00
3.107450958157445342e+01 4.695618612044112439e+01 8.288389571440871961e+00 3.390601761282470428e-02 4.147144766529505845e-03 5.753940330073277210e-01 1.143461318776278546e+00
3.680575337587349338e+01 3.522185166128521416e+01 7.321043580844329490e+00 3.966114937661056883e-02 2.850596279576404074e-03 3.217172954266743767e-01 5.527063181985847340e-01
4.359404218462265845e+01 2.711324236121963338e+01 6.874386426402486983e+00 4.318010661787935467e-02 1.959396068041044121e-03 2.185809909072492785e-01 3.581758750232367228e-01
5.163433267040320374e+01 2.095070705911363973e+01 6.498098977335964754e+00 4.661763777204934456e-02 1.346817498837532632e-03 1.514658769560700280e-01 2.392992465725842788e-01
6.115753843212795005e+01 1.624724314310297402e+01 6.178536647177257812e+00 4.994675565437315529e-02 9.257532995809760997e-04 1.063157791594817186e-01 1.637037018203308103e-01
7.243716174182492296e+01 1.261954609603963640e+01 5.884813951237058305e+00 5.342009212043530991e-02 6.363291035532168223e-04 7.540613111809729707e-02 1.152213169684395133e-01
8.579714840934212816e+01 9.756140009070664476e+00 5.552402095580245778e+00 5.803505266123674955e-02 4.373894516088825562e-04 5.768903901604155449e-02 8.797483771269201669e-02
1.016211913632223371e+02 7.581523362466819016e+00 5.278935686042947495e+00 6.230149133998783006e-02 3.006455799529834699e-04 4.291913327429151132e-02 6.522387102087004451e-02
1.203637501424954053e+02 5.917525884525829838e+00 5.049414344552159761e+00 6.625525667934911711e-02 2.066528225881665137e-04 3.127867414070353153e-02 4.732243888199415965e-02
1.425631027743314121e+02 4.634023931055955003e+00 4.847965042933226165e+00 7.003005988212454569e-02 1.420456242540957216e-04 2.236262245429021175e-02 3.360575227755905475e-02
1.688568048817287206e+02 3.624212680402059128e+00 4.634548125749019754e+00 7.451607058153142393e-02 9.763698901875690465e-05 1.634803401218369590e-02 2.443946546493757158e-02
2.000000000000002274e+02 2.802268476631840421e+00 4.336907570446622451e+00 8.204067575062394535e-02 6.711211045541172092e-05 1.345338106353095170e-02 2.019719585682405033e-02
