# r [au]                 Sigma [g cm-2]           T_mid [K]                alpha                    a_max [cm]               tau_mid (Planck)         tau_mid (Rosseland)
1.052387583442992325e+00 4.111245605540076940e+04 7.305993155302097648e+02 1.043153223851257631e-03 3.123627843096316248e+00 1.008664443069553045e+03 1.173393798645241986e+03
1.246485250245153997e+00 3.144364673890276026e+04 6.595726353735102521e+02 1.201005180988406768e-03 2.069110636172197815e+00 1.044376344532775875e+03 1.210733398329245802e+03
1.476381424033486045e+00 2.466205931219226113e+04 6.036635351930788147e+02 1.361567012400372988e-03 1.370591837367262311e+00 1.091833970628174029e+03 1.260386404158801724e+03
1.748678621590138871e+00 1.932755121868189235e+04 5.517180344849920175e+02 1.544446867325383489e-03 9.078886125359659776e-01 1.136792276879779820e+03 1.307031774462201611e+03
2.071197098411232673e+00 1.520320857231101763e+04 5.092590189779367051e+02 1.732883336808104359e-03 6.013911000344046576e-01 1.232649835364372393e+03 1.402162011738113961e+03
2.453199442997812341e+00 1.202843438753418195e+04 4.785927424978550562e+02 1.913976599862922531e-03 3.983652291775642285e-01 1.437123302808296330e+03 1.602797003178429577e+03
2.905656594315040309e+00 9.514622123716124406e+03 4.524245795302982174e+02 2.114732244484198321e-03 2.638796214453700273e-01 1.715706247341878452e+03 1.872326276077260445e+03
3.441562922323707863e+00 7.503625711158506419e+03 4.284572484589805867e+02 2.354118228456003777e-03 1.747955130469358298e-01 2.063631706737174227e+03 2.201940021563154005e+03
4.076309420558163588e+00 5.904875318636894917e+03 4.064837826424246146e+02 2.633896015555677560e-03 1.157856420059574926e-01 2.501354339643859021e+03 2.608250801716838396e+03
4.828125728676806894e+00 4.548226180335689605e+03 3.694436398625751394e+02 3.111650856475620553e-03 7.669713404560847547e-02 2.557423683453960166e+03 2.612027751123112466e+03
5.718603679678229135e+00 3.464370083547976265e+03 3.284553816096863557e+02 3.773341551367446860e-03 5.080466169119112613e-02 2.401129976382495443e+03 2.405390476073988793e+03
6.773317407828080228e+00 2.633729255635387744e+03 2.913448936058491086e+02 4.583076076165566205e-03 3.365332592507996184e-02 2.241282734969013745e+03 2.202425789041575172e+03
8.022557826523225799e+00 1.997617193302677379e+03 2.572400755064048212e+02 5.582444347988538801e-03 2.229217375176452062e-02 2.060214781962783036e+03 1.990234197103695351e+03
9.502202569973327684e+00 1.512203954671284919e+03 2.264718399503782109e+02 6.813588429342621981e-03 1.476647543500348402e-02 1.877522009032559481e+03 1.786396452190213495e+03
1.125474638304197228e+01 1.143213623212796165e+03 1.989552154805375039e+02 8.321490115200200904e-03 9.781405761531178356e-03 1.701006142489794911e+03 1.600556803188675303e+03
1.333052155158932095e+01 8.565309975160247404e+02 1.723948191707206661e+02 1.037748038549150473e-02 6.479264404890925678e-03 1.462275157858791090e+03 1.395346230306778352e+03
1.578914342353729872e+01 6.337154504308724654e+02 1.460858819049784643e+02 1.333595506597900875e-02 4.291905299910070241e-03 1.152956114654016119e+03 1.156064963403602860e+03
1.870122253538601242e+01 4.539949461288408656e+02 1.170040092807964385e+02 1.859654768771587530e-02 2.842984936606589384e-03 7.272583184385275672e+02 8.247771903328942926e+02
2.215039251569969281e+01 3.068158889053682401e+02 8.300732642120706828e+01 3.015540426066347368e-02 1.883211018179112815e-03 2.816587466274967824e+02 3.957687538434103089e+02
2.623571200605660181e+01 2.002268460256090634e+02 5.442309919752987213e+01 5.339813707923866948e-02 1.247450766736863661e-03 7.913534442453827467e+01 1.380158032228917477e+02
3.107450958157445342e+01 1.297570231452721430e+02 3.504445735807175311e+01 9.576972202161497527e-02 8.263191965269024459e-04 2.042014984007802170e+01 3.879994064816983013e+01
3.680575337587349338e+01 8.709283384565553376e+01 2.429943347413767540e+01 1.549917655821127782e-01 5.473590082717033926e-04 6.662930641869963644e+00 1.219858245007854691e+01
4.359404218462265845e+01 6.264360141107383839e+01 1.944810417634510813e+01 2.060796981320059673e-01 3.625740333704463277e-04 3.215140473178021097e+00 5.509324239455752448e+00
5.163433267040320374e+01 4.583087989843895826e+01 1.617713706014211184e+01 2.609188125840113393e-01 2.401713093013659744e-04 1.705466579606561117e+00 2.822408763002324239e+00
6.115753843212795005e+01 3.378357477110619556e+01 1.369399505692896923e+01 3.232508725250679560e-01 1.590909786763403501e-04 9.435154863272843251e-01 1.533152491553531283e+00
7.243716174182492296e+01 2.501067767680833143e+01 1.170996413534194502e+01 3.955354495900075262e-01 1.053828601335442792e-04 5.341966608805414074e-01 8.582867958160133037e-01
8.579714840934212816e+01 1.885950119092427357e+01 1.043725023370611993e+01 4.597957148651740655e-01 6.980626621525481230e-05 3.296290144257498222e-01 5.260090931334059361e-01
1.016211913632223371e+02 1.456239460130897534e+01 9.805036309534353123e+00 5.009008090591657858e-01 4.624010770574950215e-05 2.268813739830165821e-01 3.607858963460708890e-01
1.203637501424954053e+02 1.126151936765545081e+01 9.222379753598517027e+00 5.446233723641221713e-01 3.062973679248390447e-05 1.566178681243251547e-01 2.481770821295193885e-01
1.425631027743314121e+02 8.733223833446659867e+00 8.709785539727510795e+00 5.889932413795351263e-01 2.028932938363782877e-05 1.092706994522960190e-01 1.724399579729997134e-01
1.688568048817287206e+02 6.790163768299373181e+00 8.254492455793831951e+00 6.340208192690626188e-01 1.343977878839521221e-05 7.684621712809766580e-02 1.208731336493933800e-01
2.000000000000002274e+02 5.292664963933538580e+00 7.847641852911671378e+00 6.795994291257259068e-01 8.902593598123653226e-06 5.450189721854158120e-02 8.547368439444305577e-02
