# r [au]                 Sigma [g cm-2]           T_mid [K]                alpha                    a_max [cm]               tau_mid (Planck)         tau_mid (Rosseland)
1.052387583442992325e+00 5.485471998160560906e+04 4.136180559103813721e+02 2.950385382901043273e-05 4.727129465240287942e+01 2.354397105817242846e+03 2.469651081530011197e+03
1.246485250245153997e+00 3.941942308505869005e+04 3.527367090010631046e+02 3.883314461426535884e-05 3.230763377916437662e+01 2.002117009842131665e+03 2.024594661916438326e+03
1.476381424033486045e+00 2.785032158965175040e+04 2.881396369914195930e+02 5.357253184368935645e-05 2.208069840447125642e+01 1.434578082224174977e+03 1.403350761208202357e+03
1.748678621590138871e+00 1.967405578021514884e+04 2.347544198944353298e+02 7.382525826706399054e-05 1.509108483034917114e+01 1.018594683614905421e+03 9.654566447117919097e+02
2.071197098411232673e+00 1.404982942192933660e+04 1.923468485258714793e+02 9.851397638556896397e-05 1.031402345999510040e+01 7.399569866697154339e+02 6.916670586442064632e+02
2.453199442997812341e+00 1.031924337401675803e+04 1.661142135329632765e+02 1.212676138227188798e-04 7.049134050283371700e+00 6.642140769408277947e+02 6.168656208276673851e+02
2.905656594315040309e+00 7.585884713512184135e+03 1.427816785305518295e+02 1.489102944756354543e-04 4.817740724713077682e+00 5.849955191229511229e+02 5.420338283847769389e+02
3.441562922323707863e+00 5.569638539216085519e+03 1.220259710334477887e+02 1.835093889421276852e-04 3.292691772491693758e+00 5.035776129404903827e+02 4.661864972136918368e+02
4.076309420558163588e+00 4.081334708391798358e+03 1.037270939182153882e+02 2.274035862710803392e-04 2.250394890082026311e+00 4.242646771399130898e+02 3.932968400449320256e+02
4.828125728676806894e+00 2.978847479079780442e+03 8.721319745058856654e+01 2.849809676228500085e-04 1.538035598599313047e+00 3.418628509227381187e+02 3.179444326330802255e+02
5.718603679678229135e+00 2.162369852622434792e+03 7.247095023564352800e+01 3.626228005490806381e-04 1.051172624406609968e+00 2.620091426170004638e+02 2.450716192142797922e+02
6.773317407828080228e+00 1.561727174058370110e+03 5.981555550379337660e+01 4.679402039456948817e-04 7.184254300148702477e-01 1.953934557206659406e+02 1.840726569055530035e+02
8.022557826523225799e+00 1.122866269810957874e+03 4.916845880855924378e+01 6.112744336235209630e-04 4.910088852279673177e-01 1.433219822986533813e+02 1.360744106002888145e+02
9.502202569973327684e+00 8.006641397382320520e+02 4.010309060745927923e+01 8.170270260587331971e-04 3.355807232043846455e-01 1.018512894558380424e+02 9.754369958243214001e+01
1.125474638304197228e+01 5.676447528669860958e+02 3.244389589633034632e+01 1.109080038812171711e-03 2.293531240969170770e-01 6.998663058494419431e+01 6.801023619554872823e+01
1.333052155158932095e+01 3.995023872100835547e+02 2.599151900097344736e+01 1.535818230105726349e-03 1.567517199162173080e-01 4.613159902049866901e+01 4.584899320604431239e+01
1.578914342353729872e+01 2.797514084000929415e+02 2.064358638202223517e+01 2.155181106772866527e-03 1.071321866377075993e-01 2.929072901358809489e+01 3.006360869365654409e+01
1.870122253538601242e+01 1.921282466671004840e+02 1.572400557462228043e+01 3.193650126278762321e-03 7.321964581894960244e-02 1.530771712468331813e+01 1.748779451428649878e+01
2.215039251569969281e+01 1.303718243151481033e+02 1.159813518765063023e+01 4.891755377240977407e-03 5.004207140830874839e-02 6.730610518410514054e+00 9.205697324650113700e+00
2.623571200605660181e+01 9.064600372113143578e+01 8.886406789575531207e+00 6.973972603038961805e-03 3.420132510646742285e-02 2.934354467956085788e+00 4.993218487918573700e+00
3.107450958157445342e+01 6.502881816402513948e+01 7.199168076993741394e+00 9.074550706372306805e-03 2.337494444412731298e-02 1.160418326014833967e+00 2.427735475212727589e+00
3.680575337587349338e+01 4.769927377998138240e+01 6.135597216614715244e+00 1.107131551535542671e-02 1.597563913284509238e-02 4.952004790761754260e-01 1.182246058793391841e+00
4.359404218462265845e+01 3.565894263653019891e+01 5.481750010097748316e+00 1.279146035015065082e-02 1.091857336016108238e-02 2.585093904892549199e-01 6.563398607092695292e-01
5.163433267040320374e+01 2.727460685789639427e+01 5.158198813287754980e+00 1.385013814380245747e-02 7.462314542152980769e-03 1.657132877379184910e-01 3.731630560042355493e-01
6.115753843212795005e+01 2.100303910671673435e+01 4.925419024318205885e+00 1.473386208031463029e-02 5.100129521427358009e-03 1.172032571049501787e-01 2.254890990967179654e-01
7.243716174182492296e+01 1.622750433830183070e+01 4.729034134521592492e+00 1.555688964264955766e-02 3.485690798532124594e-03 8.423426887733413693e-02 1.389591193590717921e-01
8.579714840934212816e+01 1.247991736389721851e+01 4.499495601027226677e+00 1.668121874941567995e-02 2.382300349809745796e-03 6.152642312924951062e-02 9.605393509384044237e-02
1.016211913632223371e+02 9.578462651527846816e+00 4.260767191926476904e+00 1.802670013301050506e-02 1.628186573259340171e-03 4.547299671403637333e-02 6.972138038875146104e-02
1.203637501424954053e+02 7.389435298169790833e+00 4.067866877363947253e+00 1.923652232790717953e-02 1.112786436669795749e-03 3.269684333175407881e-02 4.918027726380855280e-02
1.425631027743314121e+02 5.655829966690938626e+00 3.822326459938875320e+00 2.103971813590352000e-02 7.605354779197181321e-04 2.498111203164040880e-02 3.740683991497339295e-02
1.688568048817287206e+02 4.330681801719568291e+00 3.589820445919389424e+00 2.302899224308544920e-02 5.197890575532023230e-04 1.911835870417844668e-02 2.859408396095669200e-02
2.000000000000002274e+02 3.319284401530548934e+00 3.373534349762377538e+00 2.518424399872147904e-02 3.552505730450148573e-04 1.472227057977397793e-02 2.200130799863677863e-02
