# r [au]                 Sigma [g cm-2]           T_mid [K]                alpha                    a_max [cm]               tau_mid (Planck)         tau_mid (Rosseland)
1.052387583442992325e+00 9.793801002838638669e+04 8.336017402169704837e+02 2.031017039208123651e-04 2.102524470438357440e+01 1.261323758085381314e+03 1.441772165740248965e+03
1.246485250245153997e+00 7.174000313297855610e+04 7.029551417863962115e+02 2.549878038571076451e-04 1.384282925754859939e+01 1.019965579637756719e+03 1.186037508166575435e+03
1.476381424033486045e+00 5.298034092592661182e+04 6.070501372224905481e+02 3.127474957059210733e-04 9.113992467050413993e+00 9.071591668184844366e+02 1.047141750896014628e+03
1.748678621590138871e+00 3.984593528278517624e+04 5.424504172921050440e+02 3.645031532532317362e-04 6.000569474925555369e+00 9.252801907627895162e+02 1.063250009731738828e+03
2.071197098411232673e+00 3.025306306500690698e+04 4.969979783094785830e+02 4.140747496332550541e-04 3.950720186963355918e+00 1.042009173667053574e+03 1.173010482424584325e+03
2.453199442997812341e+00 2.306570531797082003e+04 4.620893671137357046e+02 4.655665403943763225e-04 2.601118120688602264e+00 1.243465765958030488e+03 1.364581408877313379e+03
2.905656594315040309e+00 1.757509333980741212e+04 4.326089753843522203e+02 5.251570893638396248e-04 1.712552435401663464e+00 1.523773096755611277e+03 1.626851494553960720e+03
3.441562922323707863e+00 1.329864363390058679e+04 4.027753470713619208e+02 6.048015571440524358e-04 1.127528896390056934e+00 1.824532682749928199e+03 1.895676607196912528e+03
4.076309420558163588e+00 9.850953733538148299e+03 3.583574734096365546e+02 7.396073340196074189e-04 7.423547366573859385e-01 1.820955372472529916e+03 1.846839317461060091e+03
4.828125728676806894e+00 7.246859812663984485e+03 3.119498242791505618e+02 9.217873766773871736e-04 4.887595846120226795e-01 1.665806697407090269e+03 1.651487025497316608e+03
5.718603679678229135e+00 5.329922108741373449e+03 2.711787300742064986e+02 1.148961388121966199e-03 3.217948505666617942e-01 1.516325265849990728e+03 1.470032176745047082e+03
6.773317407828080228e+00 3.923479505869478999e+03 2.352464140423779781e+02 1.427895766565095460e-03 2.118667932280463850e-01 1.369372135253126999e+03 1.301995503244355177e+03
8.022557826523225799e+00 2.891524535004842619e+03 2.039421482169523188e+02 1.768005196845128316e-03 1.394911633722260569e-01 1.233856438401519199e+03 1.153918032036069235e+03
9.502202569973327684e+00 2.145716293776702514e+03 1.777487924615039105e+02 2.146761415034590965e-03 9.183970910435851343e-02 1.135503700817136632e+03 1.056329091739665500e+03
1.125474638304197228e+01 1.590375104876994556e+03 1.540448431070578863e+02 2.615270044909009505e-03 6.046642643495706015e-02 1.021661356195561098e+03 9.492765500788384543e+02
1.333052155158932095e+01 1.176723708447133504e+03 1.328188551876791053e+02 3.201164560059698103e-03 3.981054340731269431e-02 9.006942963489346994e+02 8.382590326509989609e+02
1.578914342353729872e+01 8.665356182731577519e+02 1.136419910394378547e+02 3.969832523704329430e-03 2.621089850729580936e-02 7.701487254103875557e+02 7.255029153692603359e+02
1.870122253538601242e+01 6.306933343319910819e+02 9.502357097735304592e+01 5.084237580547266641e-03 1.725701640218170810e-02 6.008920180282655110e+02 5.830133563427506260e+02
2.215039251569969281e+01 4.509244623274320816e+02 7.677084478645939214e+01 6.837843384764989534e-03 1.136186212854452780e-02 4.089132822909697893e+02 4.205819483590900631e+02
2.623571200605660181e+01 3.021469513683902051e+02 5.496311740675147206e+01 1.101427042874077687e-02 7.480546348193494247e-03 1.710180851255594803e+02 2.193656676383503736e+02
3.107450958157445342e+01 1.926222381007354443e+02 3.547039101627866842e+01 2.036099418648520260e-02 4.925123455501643349e-03 4.385262390263412868e+01 7.846278305844622025e+01
3.680575337587349338e+01 1.236258917310649537e+02 2.288820577780019150e+01 3.680783594429373751e-02 3.242656341243086750e-03 1.020781681472448632e+01 2.353738302495516521e+01
4.359404218462265845e+01 8.512770203170767047e+01 1.682552871391857252e+01 5.425346400687689613e-02 2.134935345764470572e-03 3.608307296871124503e+00 7.546470649637985417e+00
5.163433267040320374e+01 6.072241189004333251e+01 1.341384109658942236e+01 7.217025850169822565e-02 1.405621950319627155e-03 1.631468878871174422e+00 2.943471956636078080e+00
6.115753843212795005e+01 4.420063800448085800e+01 1.122374257169351530e+01 9.052831841106898092e-02 9.254486657594182368e-04 8.454221840918976216e-01 1.379010014896475456e+00
7.243716174182492296e+01 3.271249835957658547e+01 9.778515501358791440e+00 1.082816786910670986e-01 6.093069567967016520e-04 4.926143576534490198e-01 7.900718212969914944e-01
8.579714840934212816e+01 2.442301696099468344e+01 8.692559798502864865e+00 1.263765865795318522e-01 4.011621404156480138e-04 2.995081394440477496e-01 4.745671255394323107e-01
1.016211913632223371e+02 1.849355486746779675e+01 7.979424069640840500e+00 1.417788595910563498e-01 2.641214926363617452e-04 1.949158710967072716e-01 3.062017440709448590e-01
1.203637501424954053e+02 1.420426141091873262e+01 7.558680733896996351e+00 1.529535448486905036e-01 1.738951806373865874e-04 1.354303117090980557e-01 2.116054127829190279e-01
1.425631027743314121e+02 1.092697189517021528e+01 7.172154346926628676e+00 1.646060771061904349e-01 1.144910001343305743e-04 9.449113443165652049e-02 1.469092136271303306e-01
1.688568048817287206e+02 8.422527758205196946e+00 6.823181202991073668e+00 1.765277648910885122e-01 7.537982975556496842e-05 6.655434536208264251e-02 1.029422042675076088e-01
2.000000000000002274e+02 6.499674164034741075e+00 6.495619482319165527e+00 1.891139768365845131e-01 4.962939206846967891e-05 4.695818726276176913e-02 7.238565620803011358e-02
