# r [au]                 Sigma [g cm-2]           T_mid [K]                alpha                    a_max [cm]               tau_mid (Planck)         tau_mid (Rosseland)
1.246485250245153997e+00 6.626653275490975648e+04 1.127448536514649959e+03 1.275586749859728992e-03 3.467429734431139554e+00 1.390108014957008209e+03 1.492473588320259523e+03
1.476381424033486045e+00 5.049269640738746966e+04 9.954369725650090004e+02 1.497410551234729971e-03 2.253590991712852709e+00 1.306117072433333306e+03 1.445538391649345613e+03
1.748678621590138871e+00 3.857576271333634941e+04 8.845835863435927422e+02 1.744702833870600709e-03 1.464679242811698368e+00 1.259468464678665441e+03 1.428383103110987804e+03
2.071197098411232673e+00 2.957224340535857118e+04 7.927757936130018379e+02 2.014011662280176893e-03 9.519408323037781283e-01 1.256729167089504244e+03 1.447814157280737390e+03
2.453199442997812341e+00 2.270078346831834642e+04 7.135618876285453780e+02 2.316736986941615901e-03 6.186961088269551379e-01 1.275685926842799745e+03 1.484985663721651463e+03
2.905656594315040309e+00 1.745976041568084838e+04 6.473397651238456092e+02 2.651770063507498647e-03 4.021099443242114879e-01 1.335851289652482137e+03 1.547838828065141797e+03
3.441562922323707863e+00 1.342496954589634879e+04 5.863341459221970808e+02 3.038556158031359249e-03 2.613438245651653058e-01 1.389894867111751182e+03 1.603624538019992542e+03
4.076309420558163588e+00 1.033069812677551636e+04 5.313017838685292418e+02 3.475495645115351216e-03 1.698555223575323181e-01 1.448092623247563324e+03 1.662317212151299373e+03
4.828125728676806894e+00 8.004785957973869699e+03 4.907033216273348444e+02 3.904161396809339036e-03 1.103944144207480854e-01 1.627605375410389115e+03 1.839190062596721873e+03
5.718603679678229135e+00 6.225806671347401789e+03 4.606744044037278059e+02 4.346239777269714742e-03 7.174878135341031249e-02 1.951263392977589092e+03 2.153935830858100871e+03
6.773317407828080228e+00 4.832641912488854359e+03 4.338495145691928769e+02 4.869443907612784617e-03 4.663177618823449722e-02 2.366861874613188775e+03 2.549351537458122493e+03
8.022557826523225799e+00 3.742334464240999296e+03 4.088210868937729856e+02 5.495100004693841828e-03 3.030744926187115690e-02 2.875757917648635157e+03 3.020302315979762625e+03
9.502202569973327684e+00 2.853723163066542384e+03 3.729403591821913437e+02 6.463648100725662843e-03 1.969775882121875196e-02 3.068408161131570523e+03 3.146802213011279946e+03
1.125474638304197228e+01 2.139943951691795064e+03 3.283294002592771221e+02 7.943490939987673735e-03 1.280218929763376860e-02 2.843034645959889986e+03 2.855734028145540833e+03
1.333052155158932095e+01 1.599652068954633478e+03 2.875470848783775182e+02 9.825665495492413512e-03 8.320543078022423281e-03 2.584391279079960441e+03 2.547921592135521223e+03
1.578914342353729872e+01 1.189733380738716733e+03 2.498101922053765804e+02 1.229507822397267816e-02 5.407781083663785494e-03 2.279145946097881279e+03 2.219910060976521436e+03
1.870122253538601242e+01 8.814757006343828607e+02 2.158190516172477373e+02 1.551039659732538281e-02 3.514685997609478130e-03 1.969679878084981738e+03 1.909116636545485790e+03
2.215039251569969281e+01 6.388485201387127290e+02 1.809046463513553249e+02 2.071431874608364865e-02 2.284304314593839282e-03 1.512316596300273204e+03 1.522741910949926478e+03
2.623571200605660181e+01 4.513318613986275523e+02 1.441491415723437512e+02 2.954207069850348436e-02 1.484640791587398673e-03 9.492034943267636891e+02 1.071952422797891586e+03
3.107450958157445342e+01 3.067632138305026501e+02 1.043074787210440206e+02 4.661306828770437477e-02 9.649144669400784927e-04 4.043591672749196277e+02 5.577515390774982507e+02
3.680575337587349338e+01 2.018234887380135092e+02 6.884144143514565428e+01 8.003360432819488224e-02 6.271280795907228098e-04 1.183298523006235570e+02 1.905585119380162666e+02
4.359404218462265845e+01 1.321772284951628933e+02 4.513852704692619255e+01 1.384720563430671958e-01 4.075901457445714059e-04 3.343916097941347232e+01 5.920464908774324186e+01
5.163433267040320374e+01 8.674549827867252816e+01 2.994786480916178917e+01 2.371449792741895102e-01 2.649055788037732060e-04 9.799725770142941883e+00 1.770713609076632622e+01
6.115753843212795005e+01 6.160662693191903116e+01 2.347824683042337668e+01 3.240408159287104239e-01 1.721704177935139233e-04 4.482643540713664443e+00 7.835373905842240916e+00
7.243716174182492296e+01 4.445466814023296820e+01 1.906668341871840155e+01 4.227255005523933851e-01 1.118989373385414116e-04 2.249505750696371820e+00 3.804626238891098744e+00
8.579714840934212816e+01 3.224635921104708558e+01 1.567919834847287852e+01 5.428813008484204561e-01 7.272661783577546849e-05 1.163692014791443796e+00 1.916823796826900628e+00
1.016211913632223371e+02 2.345168102239797392e+01 1.298010009386273644e+01 6.916086814097528457e-01 4.726730268964925803e-05 6.118721292678543922e-01 9.891139049406011408e-01
1.203637501424954053e+02 1.774965747017387940e+01 1.177483527052650736e+01 7.870950680520094611e-01 3.072049780453127698e-05 3.894441910006932739e-01 6.260956292854213956e-01
1.425631027743314121e+02 1.357552224592870260e+01 1.092521122109955201e+01 8.709139111588958260e-01 1.996621198283174824e-05 2.598350054191185809e-01 4.157501225086157048e-01
1.688568048817287206e+02 1.042856273894731167e+01 1.022307643062152316e+01 9.536557197297202970e-01 1.297666540040824071e-05 1.767139380502276147e-01 2.817026189660684077e-01
