# r [au]                 Sigma [g cm-2]           T_mid [K]                alpha                    a_max [cm]               tau_mid (Planck)         tau_mid (Rosseland)
2.453199442997812341e+00 4.341465123582477099e+04 1.184323700095472987e+03 2.490624007561440499e-03 7.896001007184403342e-01 1.902312932016318882e+03 2.019170214198528356e+03
2.905656594315040309e+00 3.272220207011933599e+04 1.038588204566354534e+03 2.946539043381466143e-03 5.100671077886657079e-01 1.770784905887662035e+03 1.941392538549776191e+03
3.441562922323707863e+00 2.468762681320222327e+04 9.127809302345848437e+02 3.476912500471484972e-03 3.294939478999246996e-01 1.662750356145445721e+03 1.879664490255813917e+03
4.076309420558163588e+00 1.872858936269037804e+04 8.131052741772181207e+02 4.042398648599282787e-03 2.128470157061352896e-01 1.647477671271122290e+03 1.894543226156351238e+03
4.828125728676806894e+00 1.423476309415009382e+04 7.283285296091520422e+02 4.678254650824091414e-03 1.374952480425153944e-01 1.668033913364939963e+03 1.938543866495553175e+03
5.718603679678229135e+00 1.083576516531197558e+04 6.561605980460559522e+02 5.395076472658491724e-03 8.881939533685417887e-02 1.727338196701790366e+03 2.006302987364351566e+03
6.773317407828080228e+00 8.250225200006772866e+03 5.912963588920132452e+02 6.222387769776017465e-03 5.737569188983989571e-02 1.789575649443965403e+03 2.069971924778137691e+03
8.022557826523225799e+00 6.287511565233527108e+03 5.329083892261422761e+02 7.163292007333461019e-03 3.706363916746745202e-02 1.854000701844237483e+03 2.134649365677518290e+03
9.502202569973327684e+00 4.815661980773716095e+03 4.873429526900255837e+02 8.141618160862153231e-03 2.394242758716927377e-02 2.034857237004405533e+03 2.313520705028298835e+03
1.125474638304197228e+01 3.707239246105594248e+03 4.563521331901656026e+02 9.136038062973110205e-03 1.546636681240980311e-02 2.452726764300603918e+03 2.718745598054330003e+03
1.333052155158932095e+01 2.848709074233414412e+03 4.284824266365365588e+02 1.031726262642555098e-02 9.990987818804152737e-03 2.985514819076964613e+03 3.222202065130531082e+03
1.578914342353729872e+01 2.168590599654354719e+03 3.962074569208454022e+02 1.196414272763528415e-02 6.453993934464309634e-03 3.415900357193515447e+03 3.589769167729621586e+03
1.870122253538601242e+01 1.628851916442113634e+03 3.566307713877537822e+02 1.439255816789627475e-02 4.169161094131710460e-03 3.509093417011118163e+03 3.597871072231416747e+03
2.215039251569969281e+01 1.197072175974694574e+03 3.074591112286154839e+02 1.835741323183746193e-02 2.693201203056948528e-03 3.036417918175542582e+03 3.069329427704346472e+03
2.623571200605660181e+01 8.652273373392725944e+02 2.584073473409879398e+02 2.445357562647969274e-02 1.739758324608005726e-03 2.377869264369390748e+03 2.427932791463680587e+03
3.107450958157445342e+01 6.179879209543540810e+02 2.130999957450036106e+02 3.356145663631938253e-02 1.123851803054026419e-03 1.730606403530929811e+03 1.836550688234393647e+03
3.680575337587349338e+01 4.304898580189802146e+02 1.682916963951070386e+02 4.919214544248525639e-02 7.259875451450242692e-04 1.062623627178176775e+03 1.195613447932061490e+03
4.359404218462265845e+01 2.926860740784345012e+02 1.223976983971796813e+02 7.682681249894535158e-02 4.689745696660746065e-04 4.676117393462959626e+02 5.952285286196838570e+02
5.163433267040320374e+01 1.949089849019537439e+02 8.314614844915475089e+01 1.266196613390264680e-01 3.029489258655843282e-04 1.555269917213479403e+02 2.289236511702766279e+02
6.115753843212795005e+01 1.282622182285821850e+02 5.510239995775128818e+01 2.149216769176329200e-01 1.956994208629698518e-04 4.674429541520893139e+01 7.817941389810556529e+01
7.243716174182492296e+01 8.398065887667971197e+01 3.640926543112945524e+01 3.687068878994850252e-01 1.264182179114073379e-04 1.373741501921310793e+01 2.551903720622812699e+01
8.579714840934212816e+01 5.926775857136740200e+01 2.822431085187492172e+01 5.097863731068421611e-01 8.166383809120366234e-05 6.146872013903212029e+00 1.098308818325660852e+01
1.016211913632223371e+02 4.199453611632413441e+01 2.210862439769557142e+01 6.959047099330047947e-01 5.275333383088727160e-05 2.822117409825243950e+00 4.874554517513477236e+00
1.203637501424954053e+02 2.990266440278077553e+01 1.753894497983820955e+01 9.355946828504565493e-01 3.407768108039483323e-05 1.341302009556003538e+00 2.242692326178855389e+00
