# r [au]                 Sigma [g cm-2]           T_mid [K]                alpha                    a_max [cm]               tau_mid (Planck)         tau_mid (Rosseland)
1.052387583442992325e+00 1.511616932272384875e+05 5.414262298364765229e+02 7.777454037339919931e-06 4.316068177326279738e+02 2.822631712613380387e+03 3.215518950684905121e+03
1.246485250245153997e+00 1.103480476287259953e+05 4.709379706028626060e+02 9.553036135841604478e-06 2.883860632019047330e+02 2.644615753898109688e+03 2.944783284311428815e+03
1.476381424033486045e+00 8.100526460691174725e+04 4.272618370972438129e+02 1.154717230527553640e-05 1.926904720504508646e+02 2.932664096626667288e+03 3.129676261473056911e+03
1.748678621590138871e+00 5.868701306301995646e+04 3.787698055480400399e+02 1.450697344318364997e-05 1.287496961773453563e+02 2.964052794959047333e+03 3.034106671527025810e+03
2.071197098411232673e+00 4.105102250726636703e+04 3.075076370928963456e+02 2.018547063070811159e-05 8.602648636108210667e+01 2.106978004378239802e+03 2.083838072437393748e+03
2.453199442997812341e+00 2.873261177105381648e+04 2.490036404576363225e+02 2.801855436161832861e-05 5.748018500517155616e+01 1.483160357643918815e+03 1.420500383915855991e+03
2.905656594315040309e+00 2.020340576679748483e+04 2.017957035093887725e+02 3.835051488411610708e-05 3.840644675827941512e+01 1.047737380043509802e+03 9.801606097777998912e+02
3.441562922323707863e+00 1.435360586334059371e+04 1.650388653233108016e+02 5.090889775478412875e-05 2.566197642655210487e+01 7.676257017266514140e+02 7.126936657502791377e+02
4.076309420558163588e+00 1.018656847689532151e+04 1.336854693750469778e+02 6.777208913592676289e-05 1.714652329754889948e+01 5.413599140123009192e+02 5.012902823134808159e+02
4.828125728676806894e+00 7.214026642623978660e+03 1.072758949062564113e+02 9.074988919182026695e-05 1.145676608482836123e+01 3.678558475408938762e+02 3.405233996392307176e+02
5.718603679678229135e+00 5.162768157614041229e+03 8.759658331064790104e+01 1.178116765277759396e-04 7.655049764008820645e+00 2.671778788271744247e+02 2.483811363603423956e+02
6.773317407828080228e+00 3.716043138772558905e+03 7.262138316342388578e+01 1.503756770789991051e-04 5.114862820412551692e+00 2.061276976618852359e+02 1.925791300635841594e+02
8.022557826523225799e+00 2.663293013887137931e+03 5.985593292069619054e+01 1.943448838234968867e-04 3.417590019419792569e+00 1.552762035239537113e+02 1.458832787910617412e+02
9.502202569973327684e+00 1.900767661529490852e+03 4.912766389999345051e+01 2.542444369077972001e-04 2.283525863924480426e+00 1.149668838239395967e+02 1.086452775739230106e+02
1.125474638304197228e+01 1.349180061975462195e+03 4.012289899347097588e+01 3.378834402891796036e-04 1.525779962365809705e+00 8.340618269521348793e+01 7.927247381370663959e+01
1.333052155158932095e+01 9.539992995505269846e+02 3.264780328742417481e+01 4.539642739435777348e-04 1.019478049421374655e+00 5.958992123267345420e+01 5.695029345525948372e+01
1.578914342353729872e+01 6.716787643161205779e+02 2.641740959576444681e+01 6.174301320722209736e-04 6.811830794005584444e-01 4.158176989115279554e+01 4.006538282528126160e+01
1.870122253538601242e+01 4.713410778332334417e+02 2.127931737325353723e+01 8.476247846660421581e-04 4.551450498860530880e-01 2.844599264030942010e+01 2.770936410643214387e+01
2.215039251569969281e+01 3.299625010667522247e+02 1.705828564663400471e+01 1.171385295295087258e-03 3.041135675567222529e-01 1.905089119352892268e+01 1.885352047048376178e+01
2.623571200605660181e+01 2.315659896575534162e+02 1.367688297605377201e+01 1.606351304975538316e-03 2.031990944320536951e-01 1.206529355929639991e+01 1.247191620371664378e+01
3.107450958157445342e+01 1.639986870581790299e+02 1.112290678665981147e+01 2.143942580586818015e-03 1.357712262222731947e-01 7.594689279917003155e+00 8.325023514735782726e+00
3.680575337587349338e+01 1.158891401460357429e+02 8.961235891895650951e+00 2.879398476339858209e-03 9.071805128572382748e-02 4.264623183873063716e+00 5.221913052481250261e+00
4.359404218462265845e+01 8.170357745640708913e+01 7.119511449313337792e+00 3.892403758858073177e-03 6.061494072099061353e-02 1.915142197906588351e+00 2.930851230639639038e+00
5.163433267040320374e+01 5.855586237948205053e+01 5.854867505758940105e+00 5.012642802436436187e-03 4.050099166082251484e-02 9.069687766025418263e-01 1.740689346112346714e+00
6.115753843212795005e+01 4.290160595470508298e+01 5.063650529850900917e+00 6.050359267762111908e-03 2.706148527077545385e-02 4.538179544023816514e-01 1.030972027502052635e+00
7.243716174182492296e+01 3.207053825470376296e+01 4.591419178022522196e+00 6.886680272675944382e-03 1.808163096828063754e-02 2.510562078289863552e-01 5.986370122562455487e-01
8.579714840934212816e+01 2.412756965355482208e+01 4.228742521308833879e+00 7.698259608833148658e-03 1.208157553813798794e-02 1.480980352333071126e-01 3.608083746528149560e-01
1.016211913632223371e+02 1.838303051040353964e+01 4.000129644083078695e+00 8.299275709408592688e-03 8.072527734903427524e-03 9.554953028623588973e-02 2.149685311542700872e-01
1.203637501424954053e+02 1.407096109500574777e+01 3.822873905337728306e+00 8.837379628031863735e-03 5.393808433765620580e-03 6.982389857088112939e-02 1.344498812653907582e-01
1.425631027743314121e+02 1.084440807049223210e+01 3.699396548804596563e+00 9.236058019505050468e-03 3.603972680622714864e-03 4.955244345581483884e-02 8.125752563725373301e-02
1.688568048817287206e+02 8.263692089169019539e+00 3.502222381106661508e+00 9.991413998764414259e-03 2.408060879834985311e-03 3.694437198042990061e-02 5.704544014646891620e-02
2.000000000000002274e+02 6.272423778505838321e+00 3.288931280043605909e+00 1.094667403987726120e-02 1.608990332298981763e-03 2.789136265942797344e-02 4.248096251244978111e-02
