# r [au]                 Sigma [g cm-2]           T_mid [K]                alpha                    a_max [cm]               tau_mid (Planck)         tau_mid (Rosseland)
1.246485250245153997e+00 1.352276086692932586e+05 1.173589721930170526e+03 2.664995999374522671e-04 1.952748924696522437e+01 1.676690163175723228e+03 1.782343149592528334e+03
1.476381424033486045e+00 9.750627187093523389e+04 9.579579421507523875e+02 3.462328713314579147e-04 1.269114998545863138e+01 1.199889222758816686e+03 1.339704875009384523e+03
1.748678621590138871e+00 7.165966349991738389e+04 8.170410386379099918e+02 4.258824026239109765e-04 8.248130925405041225e+00 1.023724154090739717e+03 1.173991493222619511e+03
2.071197098411232673e+00 5.353623627712250891e+04 7.226754728883946655e+02 5.000763490430378683e-04 5.360559432405435309e+00 1.010585182932296902e+03 1.176577655423902570e+03
2.453199442997812341e+00 4.012224711036885128e+04 6.471976165192218104e+02 5.824208942517099512e-04 3.483892009987672012e+00 1.047431887553308115e+03 1.212668787930462486e+03
2.905656594315040309e+00 3.006389351447401350e+04 5.783813039287917945e+02 6.792415506321911262e-04 2.264223294285818255e+00 1.076177459963970932e+03 1.239728122189589612e+03
3.441562922323707863e+00 2.258246301441559626e+04 5.193042385633141294e+02 7.873398010217483528e-04 1.471545935318677722e+00 1.125863849892904227e+03 1.285870721891912126e+03
4.076309420558163588e+00 1.712451069604845543e+04 4.798483657738892134e+02 8.893919319569917317e-04 9.563753916046187076e-01 1.320232228463465390e+03 1.471702370731796918e+03
4.828125728676806894e+00 1.300203382439215784e+04 4.477580583437198243e+02 1.002513324894357960e-03 6.215598628042896534e-01 1.608665749449560508e+03 1.745354441039218273e+03
5.718603679678229135e+00 9.842383964855087470e+03 4.191209899566470654e+02 1.141229176813175978e-03 4.039592260954006919e-01 1.982721646419968238e+03 2.091838644185835165e+03
6.773317407828080228e+00 7.366683690780760116e+03 3.847327748436815682e+02 1.342749206217020092e-03 2.625379567003639503e-01 2.258487741998569618e+03 2.319925050954270318e+03
8.022557826523225799e+00 5.399104555179670569e+03 3.346403000852827176e+02 1.676838632427498981e-03 1.706265738119904785e-01 2.073069654121177336e+03 2.080635408777495741e+03
9.502202569973327684e+00 3.956462915830271868e+03 2.906626112371022259e+02 2.094216921065118579e-03 1.108922612818456221e-01 1.892949023345260912e+03 1.856958386112230301e+03
1.125474638304197228e+01 2.900200778217400966e+03 2.518435404003796236e+02 2.612326975781445546e-03 7.207021355156049969e-02 1.712014466180733052e+03 1.645101749315061397e+03
1.333052155158932095e+01 2.126994033980766289e+03 2.178458130909229737e+02 3.253050311166726452e-03 4.683929808380430521e-02 1.538505388773703089e+03 1.451647396052866952e+03
1.578914342353729872e+01 1.564077079521915721e+03 1.886510923885050488e+02 4.019697182646082313e-03 3.044142284126712117e-02 1.388961862603958934e+03 1.294656096706867856e+03
1.870122253538601242e+01 1.152135260088836048e+03 1.628682038061344315e+02 4.942128929120425188e-03 1.978424661579717206e-02 1.238336005318439447e+03 1.156831029737421204e+03
2.215039251569969281e+01 8.451782785660005857e+02 1.393252260772143529e+02 6.147070027134537810e-03 1.285801968573125828e-02 1.064401757924498270e+03 1.004208006375737341e+03
2.623571200605660181e+01 6.099775824889991327e+02 1.159553041080578595e+02 8.002728246204309295e-03 8.356581549415372651e-03 8.195840486124766358e+02 8.156103014151054822e+02
3.107450958157445342e+01 4.230788161614197520e+02 8.927400262078279525e+01 1.164444910426064295e-02 5.431042796545325867e-03 4.618664857332414044e+02 5.374013772918622180e+02
3.680575337587349338e+01 2.786815626325668518e+02 6.191639519913696432e+01 1.957530086787710732e-02 3.529699995564626255e-03 1.708932623397812449e+02 2.618113486450587288e+02
4.359404218462265845e+01 1.753007772912155815e+02 3.836030039021387239e+01 3.743554055166204569e-02 2.293994454732349152e-03 3.937293140136252845e+01 7.730027961047964880e+01
5.163433267040320374e+01 1.140408461474390265e+02 2.503849554440727587e+01 6.482694099393822296e-02 1.490894570347448076e-03 1.003350327741104664e+01 2.004995177143624829e+01
6.115753843212795005e+01 7.856858177208088989e+01 1.847378624330496777e+01 9.494955750693673258e-02 9.689503020838129317e-04 3.654390591260674448e+00 6.469919402632669403e+00
7.243716174182492296e+01 5.637836074474902404e+01 1.502751569283801203e+01 1.235149302287348871e-01 6.297324482773610128e-04 1.816383122807932127e+00 3.038665417180510975e+00
8.579714840934212816e+01 4.106723282391928365e+01 1.266566632257804415e+01 1.538160653555003254e-01 4.092706876302647841e-04 9.818261997647717010e-01 1.597259660082166466e+00
1.016211913632223371e+02 3.020928807443887720e+01 1.092344605743066310e+01 1.862201354128863451e-01 2.659899393965712774e-04 5.586214558878265235e-01 8.942611718988978664e-01
1.203637501424954053e+02 2.234536432812995699e+01 9.545446462413760713e+00 2.219628129019761420e-01 1.728700588596949941e-04 3.280878867678109767e-01 5.211739075936333565e-01
1.425631027743314121e+02 1.693560478580780071e+01 8.829086514074923286e+00 2.468165469082681251e-01 1.123503291814337052e-04 2.160952563386288605e-01 3.416612635600552728e-01
1.688568048817287206e+02 1.295462209960355437e+01 8.333303977663751638e+00 2.676394683995977353e-01 7.301782940573539886e-05 1.485404953531900829e-01 2.337186712456688353e-01
2.000000000000002274e+02 9.925023428204447384e+00 7.881050966828273552e+00 2.894192140253904477e-01 4.745516501794188935e-05 1.025892245156278942e-01 1.607274985528261424e-01
