# r [au]                 Sigma [g cm-2]           T_mid [K]                alpha                    a_max [cm]               tau_mid (Planck)         tau_mid (Rosseland)
1.052387583442992325e+00 1.715420623890592833e+05 8.592838624886687739e+02 4.083561888236383165e-05 1.233764219331982730e+02 2.179920004038861407e+03 2.480810509994614222e+03
1.246485250245153997e+00 1.243759473110685940e+05 7.212824342201986383e+02 5.156816161993881843e-05 8.111009816229912417e+01 1.761342593911073891e+03 2.038481437691424617e+03
1.476381424033486045e+00 9.034157414141573827e+04 6.111595285474535331e+02 6.477674696766009361e-05 5.332338157334384476e+01 1.477742953741477777e+03 1.703319527700986100e+03
1.748678621590138871e+00 6.569835220160151948e+04 5.189384157312409798e+02 8.108701031472771443e-05 3.505584491744692599e+01 1.250328937031619262e+03 1.428339660434602365e+03
2.071197098411232673e+00 4.855747082383666566e+04 4.646930583707602977e+02 9.687865309587520807e-05 2.304640528443916736e+01 1.308583635184370223e+03 1.439089709979824875e+03
2.453199442997812341e+00 3.586196462823154434e+04 4.216998028572828616e+02 1.160483556609779476e-04 1.515116231787880352e+01 1.444232124473422800e+03 1.523332737970801190e+03
2.905656594315040309e+00 2.557539068646217129e+04 3.598743860354469462e+02 1.537915300151770567e-04 9.960673551883907351e+00 1.246007758976413470e+03 1.266692997635303072e+03
3.441562922323707863e+00 1.861464345789955405e+04 3.143254619396487897e+02 1.920987103222424888e-04 6.548343653484859139e+00 1.180210172837552363e+03 1.170076227718127257e+03
4.076309420558163588e+00 1.350397841395633259e+04 2.710990807961945848e+02 2.422263065116494031e-04 4.305010537768778178e+00 1.062909267768354312e+03 1.029197033819890294e+03
4.828125728676806894e+00 9.799186582213606016e+03 2.335064866456518189e+02 3.051624679525283875e-04 2.830199010773872814e+00 9.523322811749555967e+02 9.014959301933085953e+02
5.718603679678229135e+00 7.163330106577264814e+03 2.017712508208397537e+02 3.763612226557912894e-04 1.860628765089362258e+00 8.637562544886168325e+02 8.091189691882705119e+02
6.773317407828080228e+00 5.250896857344820091e+03 1.750127415746736972e+02 4.605760809649194236e-04 1.223214123211564530e+00 7.955008382347828046e+02 7.398491158361687212e+02
8.022557826523225799e+00 3.848718107469484039e+03 1.509434349504472550e+02 5.638883346224784002e-04 8.041651399237389475e-01 7.160734061311497953e+02 6.640767005852598004e+02
9.502202569973327684e+00 2.817244717349899929e+03 1.293837472611378416e+02 6.931474704048989216e-04 5.286740563219592959e-01 6.288146728407787123e+02 5.825327903703376933e+02
1.125474638304197228e+01 2.059687296339660406e+03 1.104891314102083157e+02 8.551813077284369131e-04 3.475607732193197741e-01 5.439412462245863935e+02 5.046591032485971482e+02
1.333052155158932095e+01 1.500512389919510042e+03 9.345600150638574632e+01 1.066027164502048041e-03 2.284933214260935763e-01 4.528491671603630380e+02 4.218041433272798599e+02
1.578914342353729872e+01 1.088272078791971353e+03 7.805352761266023265e+01 1.346065765837247807e-03 1.502160253953134239e-01 3.580786788978869595e+02 3.358179906675965753e+02
1.870122253538601242e+01 7.834324833717022329e+02 6.433359421609756623e+01 1.736280856938446186e-03 9.875498393008429188e-02 2.675123222219657464e+02 2.540249727135427236e+02
2.215039251569969281e+01 5.577327263015012022e+02 5.219728327109686461e+01 2.311923451271949512e-03 6.492347820657673463e-02 1.872695112880016097e+02 1.826827639873319811e+02
2.623571200605660181e+01 3.908724692056925392e+02 4.148659805861407079e+01 3.219039050281560527e-03 4.268197770579381517e-02 1.201706227898643249e+02 1.228394735866996115e+02
3.107450958157445342e+01 2.688555779466930744e+02 3.182940193081455504e+01 4.726749381822048512e-03 2.805997570064444960e-02 6.572201307261529735e+01 7.461125462316178414e+01
3.680575337587349338e+01 1.778954427588037106e+02 2.249774089676389721e+01 7.756483862364066222e-03 1.844718259655239376e-02 2.373780025792608939e+01 3.493122848023595850e+01
4.359404218462265845e+01 1.173429634966785642e+02 1.560709010116168471e+01 1.282465178039749604e-02 1.212754242487577676e-02 7.232255957464156282e+00 1.459149360352916958e+01
5.163433267040320374e+01 7.946019141320118706e+01 1.124792242751195381e+01 1.961610416630191894e-02 7.972886076090972274e-03 2.180336506822200260e+00 5.152643508545381223e+00
6.115753843212795005e+01 5.635399910538124857e+01 8.927410908790463395e+00 2.619240572483514176e-02 5.241532880721002340e-03 8.485940837153845839e-01 1.836334018148292779e+00
7.243716174182492296e+01 4.125164558506504164e+01 7.626472036771749785e+00 3.188149015299831385e-02 3.445887308244315831e-03 4.128494993322391338e-01 7.495199911048748831e-01
8.579714840934212816e+01 3.100106170870107292e+01 6.961238390590565928e+00 3.595663695112761432e-02 2.265394420169273074e-03 2.563689234894066526e-01 4.261026609384823138e-01
1.016211913632223371e+02 2.359045057336311046e+01 6.547568429269533752e+00 3.914285372900836585e-02 1.489315064557012683e-03 1.727598637865185305e-01 2.749991037202996758e-01
1.203637501424954053e+02 1.801619114827232337e+01 6.203532951621435032e+00 4.222228493514509906e-02 9.791051579224442983e-04 1.187073760348236751e-01 1.829571752814077856e-01
1.425631027743314121e+02 1.377741937544622886e+01 5.891524667677841443e+00 4.543434840905458127e-02 6.436830816288543209e-04 8.248400887941909065e-02 1.260432032162097926e-01
1.688568048817287206e+02 1.049001274771396730e+01 5.546798530828380258e+00 4.958783919302209298e-02 4.231699794681724621e-04 6.158370101123063212e-02 9.384914921123158060e-02
2.000000000000002274e+02 8.017014647853983433e+00 5.254895786834363314e+00 5.361462343536413377e-02 2.782003079371671251e-04 4.519838535637604043e-02 6.866160352980293924e-02
