# r [au]                 Sigma [g cm-2]           T_mid [K]                alpha                    a_max [cm]               tau_mid (Planck)         tau_mid (Rosseland)
2.071197098411232673e+00 9.590580324605696660e+04 1.137576694778630554e+03 5.632387567858105357e-04 7.297424301229983534e+00 1.389331594208922979e+03 1.488178890229916533e+03
2.453199442997812341e+00 7.091095248503489711e+04 9.862696482938482632e+02 6.758899810510409075e-04 4.694484293269874264e+00 1.272887224344376591e+03 1.411541011900043713e+03
2.905656594315040309e+00 5.264205801171508210e+04 8.634397220513978937e+02 8.021225538429887798e-04 3.019994709097977736e+00 1.211787206868941894e+03 1.378799553717041817e+03
3.441562922323707863e+00 3.920649502199478593e+04 7.622792779718469092e+02 9.437101857629833944e-04 1.942783801844871316e+00 1.192868078470294222e+03 1.380365749572779578e+03
4.076309420558163588e+00 2.927497967774783319e+04 6.792322952959437998e+02 1.102953927366269763e-03 1.249806461362352739e+00 1.217717424510495221e+03 1.413470911881204074e+03
4.828125728676806894e+00 2.187836918513680939e+04 6.071122895696539672e+02 1.286858117692703772e-03 8.040092723543359465e-01 1.258034453792349041e+03 1.452517181825085800e+03
5.718603679678229135e+00 1.635987736242508254e+04 5.423671645466598648e+02 1.500203805451801693e-03 5.172248104135311886e-01 1.296334004332179347e+03 1.488447873066392049e+03
6.773317407828080228e+00 1.231796593129300891e+04 4.940461480154425544e+02 1.716389850789313372e-03 3.327343523339570397e-01 1.442974545024298550e+03 1.628905878888441748e+03
8.022557826523225799e+00 9.323069686587112301e+03 4.595702991368423795e+02 1.937073259650994809e-03 2.140503452156136410e-01 1.745522538244663338e+03 1.918837724622246924e+03
9.502202569973327684e+00 7.040193732925601580e+03 4.294508513724913428e+02 2.203299602739945771e-03 1.377000900734693389e-01 2.148301265702517867e+03 2.296164603998913663e+03
1.125474638304197228e+01 5.303349006993273179e+03 4.019301498351343866e+02 2.526572098653042265e-03 8.858343483231473359e-02 2.658551479335169006e+03 2.761322023441712190e+03
1.333052155158932095e+01 3.890302954423829760e+03 3.525503898372398339e+02 3.126655706886101189e-03 5.698634563350041260e-02 2.536432504420258738e+03 2.571050327610345448e+03
1.578914342353729872e+01 2.841803561304911454e+03 3.058442956815200091e+02 3.915240390441200591e-03 3.665971628677602845e-02 2.315827352251338652e+03 2.293432160460563409e+03
1.870122253538601242e+01 2.074913973464647825e+03 2.644070067564218789e+02 4.908152716833908899e-03 2.358345290063409289e-02 2.085716312551019655e+03 2.022179132181671321e+03
2.215039251569969281e+01 1.514534266459554146e+03 2.279437277574357950e+02 6.156517137816774725e-03 1.517140084679413810e-02 1.857937375651632237e+03 1.768855343811713055e+03
2.623571200605660181e+01 1.105732956625434781e+03 1.962148754976491887e+02 7.715913617344457263e-03 9.759868693694107034e-03 1.645495906511091789e+03 1.546366649566921069e+03
3.107450958157445342e+01 8.012405778222030222e+02 1.662413431844940135e+02 9.875962034010664359e-03 6.278592061475829142e-03 1.367337697741882721e+03 1.312519433278566339e+03
3.680575337587349338e+01 5.723570757985233968e+02 1.368682642219439742e+02 1.315769620406984433e-02 4.039062359506660933e-03 1.013050964334347441e+03 1.039468381336868333e+03
4.359404218462265845e+01 3.923832225496620936e+02 1.033276008594425832e+02 1.968760706001764643e-02 2.598357176935134436e-03 5.289791964069622736e+02 6.436042520496675934e+02
5.163433267040320374e+01 2.557706233391687647e+02 6.898508595509380825e+01 3.396375970457601173e-02 1.671541416794289315e-03 1.671631296530243844e+02 2.589615795536823839e+02
6.115753843212795005e+01 1.619341569542949344e+02 4.283869729223179945e+01 6.356547152610324269e-02 1.075314330477980659e-03 3.877520986012496707e+01 7.241155826268601459e+01
7.243716174182492296e+01 1.042668393905974682e+02 2.751899186910446105e+01 1.130628984833733780e-01 6.917572593258826917e-04 1.012283031869100292e+01 1.909161270492057838e+01
8.579714840934212816e+01 7.244526856485387611e+01 2.086620180179983208e+01 1.609882149453217004e-01 4.450123022329146400e-04 4.207727556045920636e+00 7.379374118956964601e+00
1.016211913632223371e+02 5.186879759302467363e+01 1.693587659592814987e+01 2.099454071998914928e-01 2.862795387671461999e-04 2.083471992480898649e+00 3.471348945475508430e+00
1.203637501424954053e+02 3.762562962372536646e+01 1.417831383966044179e+01 2.635289861624955376e-01 1.841656374565464745e-04 1.112006416032519374e+00 1.812024103120493113e+00
1.425631027743314121e+02 2.743366691325868700e+01 1.201765095150024365e+01 3.259235249001152246e-01 1.184750477307546581e-04 6.107186701534009776e-01 9.830111287380378648e-01
1.688568048817287206e+02 2.020236072709009889e+01 1.042941554918176372e+01 3.917039933212330127e-01 7.621583010086014839e-05 3.522433750869651825e-01 5.620457297920702366e-01
2.000000000000002274e+02 1.536212701213239029e+01 9.768330282777295537e+00 4.292248546177138135e-01 4.903017866820591155e-05 2.374678456384153868e-01 3.775346347657070334e-01
