# r [au]                 Sigma [g cm-2]           T_mid [K]                alpha                    a_max [cm]               tau_mid (Planck)         tau_mid (Rosseland)
1.246485250245153997e+00 2.230005561493963178e+05 1.163777153275619867e+03 5.576836829267179638e-05 1.037122809671370760e+02 2.763904241946286675e+03 2.944026649319968783e+03
1.476381424033486045e+00 1.595501837252760015e+05 9.454206698800489903e+02 7.283393292689316670e-05 6.762902395097484032e+01 1.966148579585991911e+03 2.201943474596777833e+03
1.748678621590138871e+00 1.150960191793177801e+05 7.855941359577211642e+02 9.285241724564104421e-05 4.409974245972684770e+01 1.531350140697290954e+03 1.762310700077149249e+03
2.071197098411232673e+00 8.334041697496133565e+04 6.622333124270918461e+02 1.170767526682535848e-04 2.875669603666050023e+01 1.263230456823888062e+03 1.462554300278563005e+03
2.453199442997812341e+00 6.038554061337223538e+04 5.604744241388797263e+02 1.473398092312299247e-04 1.875175501761891539e+01 1.059017015384390334e+03 1.217768407788923923e+03
2.905656594315040309e+00 4.422231889908989979e+04 4.892530117839643822e+02 1.797789945746740682e-04 1.222770222950935448e+01 1.004562689348388631e+03 1.124563359917906155e+03
3.441562922323707863e+00 3.296211830488013220e+04 4.477617604167282366e+02 2.084784400363073106e-04 7.973477771710731687e+00 1.151420667723285760e+03 1.246384126473066772e+03
4.076309420558163588e+00 2.471259796036300395e+04 4.182136045597453631e+02 2.378927787636589115e-04 5.199369970143238540e+00 1.430924538084007963e+03 1.503710639532957885e+03
4.828125728676806894e+00 1.809707756648148279e+04 3.742136080475534641e+02 2.908189745775638661e-04 3.390421201441085941e+00 1.496767039252745462e+03 1.532381952014072795e+03
5.718603679678229135e+00 1.315878784758923575e+04 3.271771428781999020e+02 3.629765267478505131e-04 2.210836310781813197e+00 1.427032377537739421e+03 1.424796184023851310e+03
6.773317407828080228e+00 9.534035900068347473e+03 2.822540228188144624e+02 4.577475673700357123e-04 1.441648958245615120e+00 1.289731992651969676e+03 1.257476798213247548e+03
8.022557826523225799e+00 6.910380107730497002e+03 2.431632813384009069e+02 5.766054695252648046e-04 9.400748977547241925e-01 1.159359220291137945e+03 1.105077749180900810e+03
9.502202569973327684e+00 5.026029099342817972e+03 2.094788019575713349e+02 7.190911814960655084e-04 6.130069378775852007e-01 1.041820629754014362e+03 9.772106925781747577e+02
1.125474638304197228e+01 3.676462014242235455e+03 1.814470091235423865e+02 8.821344731364755493e-04 3.997314541464356275e-01 9.565717438590868369e+02 8.902515359597425686e+02
1.333052155158932095e+01 2.690767626024580295e+03 1.565247476354847151e+02 1.080626636831905464e-03 2.606581191189236701e-01 8.639342305757675149e+02 8.017644086907862402e+02
1.578914342353729872e+01 1.966392721010182640e+03 1.341959260848284430e+02 1.329820343666523628e-03 1.699707500068914079e-01 7.612155568452144507e+02 7.057784115315824920e+02
1.870122253538601242e+01 1.435606443861058324e+03 1.147374930462165423e+02 1.641432780038114573e-03 1.108350507383362160e-01 6.633364404298705495e+02 6.165282964893381177e+02
2.215039251569969281e+01 1.043176062769108739e+03 9.695032511187724822e+01 2.054075206291798138e-03 7.227366162514138603e-02 5.513700587422056287e+02 5.159973205764938484e+02
2.623571200605660181e+01 7.535159101366139112e+02 8.060767331885183751e+01 2.615124378709697637e-03 4.712843211519149311e-02 4.296253442855395974e+02 4.072106078110651879e+02
3.107450958157445342e+01 5.390440562547830723e+02 6.578884422772175355e+01 3.423415087980979672e-03 3.073165332560866270e-02 3.099082726482355383e+02 3.016993819630527582e+02
3.680575337587349338e+01 3.722811795539452078e+02 5.068078667496992296e+01 4.960338486378021092e-03 2.003959125601725150e-02 1.748767121274471208e+02 1.894181108079265528e+02
4.359404218462265845e+01 2.491679859942244661e+02 3.699451057187575032e+01 7.864468302099494185e-03 1.306747845465269960e-02 7.700555125011135260e+01 1.010475628759962490e+02
5.163433267040320374e+01 1.626483041922473376e+02 2.530555040215461560e+01 1.339319961229980954e-02 8.521081641899118722e-03 2.414579454852804474e+01 4.139773888176419092e+01
6.115753843212795005e+01 1.063920168001821622e+02 1.698456489253359081e+01 2.263984781963864282e-02 5.556453190252452073e-03 5.977710537439260285e+00 1.225865554702647309e+01
7.243716174182492296e+01 7.232609701483289655e+01 1.230343411375668161e+01 3.415084678638247162e-02 3.623269128610997428e-03 1.813817431263277768e+00 3.777831753875038778e+00
8.579714840934212816e+01 5.182889560903886661e+01 1.004769235658549320e+01 4.411392357654068258e-02 2.362672505074931654e-03 8.353782995654701615e-01 1.547944526917129249e+00
1.016211913632223371e+02 3.806248036275215441e+01 8.708150835162154380e+00 5.303456003845211791e-02 1.540658771979499511e-03 4.677673963673272262e-01 7.870502711100273441e-01
1.203637501424954053e+02 2.829858429901647199e+01 7.774998772132517999e+00 6.152835314316870696e-02 1.004637522373039420e-03 2.817783611562287849e-01 4.459753740421508739e-01
1.425631027743314121e+02 2.132615310946850684e+01 7.175332719789419222e+00 6.865730307083578454e-02 6.551071332057870457e-04 1.840561602764670679e-01 2.879683436068286029e-01
1.688568048817287206e+02 1.624015827506086751e+01 6.781330908468154561e+00 7.438728170680422580e-02 4.271842793243319967e-04 1.261972678028664974e-01 1.957340287005056023e-01
2.000000000000002274e+02 1.239961534597299320e+01 6.440001321497135223e+00 8.008087836153623962e-02 2.785596420067117367e-04 8.761513585823182959e-02 1.347512103541745609e-01
